Black Body Radiation Experiment Thu, Mar 21, 2024 10:38 AM
Sensor Position (Degrees)	Light Intensity (Volts)
0.00000	-1.46929
0.00000	-1.48699
0.00000	-1.43484
0.00000	-1.44385
0.00000	-1.48635
0.00000	-1.40796
0.00000	-1.40925
0.00000	-1.42422
0.00000	-1.45416
0.00000	-1.38446
0.00000	-1.38366
0.00000	-1.39605
0.00000	-1.37786
0.00000	-1.37915
0.00000	-1.38366
0.00000	-1.38655
0.00000	-1.37496
0.00000	-1.38704
0.00000	-1.43790
0.00000	-1.40410
0.00000	-1.39476
0.01015	-1.43146
0.02030	-1.46092
0.09137	-1.37577
0.23350	-1.36418
0.30457	-1.45271
0.58883	-1.40796
0.72081	-1.40812
0.78173	-1.38237
1.06599	-1.38333
1.26904	-1.42245
1.38071	-1.35549
1.62437	-1.42003
1.80711	-1.36965
2.05076	-1.36756
2.47716	-1.41536
2.69036	-1.45432
2.79188	-1.36225
3.14721	-1.38865
3.44162	-1.34470
3.60406	-1.41408
4.31472	-1.43001
4.68020	-1.37464
4.89340	-1.41826
5.32995	-1.40941
5.69543	-1.42792
5.86802	-1.36080
6.45685	-1.34808
6.86294	-1.42744
7.07614	-1.33649
7.75635	-1.37062
8.25381	-1.42052
8.74112	-1.34342
9.43147	-1.32651
9.84772	-1.41633
10.05076	-1.36643
10.85279	-1.35967
11.25888	-1.38575
11.42132	-1.36241
11.90863	-1.43210
12.24365	-1.35822
12.38579	-1.39927
12.83249	-1.37432
13.14721	-1.41536
13.27919	-1.34132
13.66497	-1.36128
13.94924	-1.36869
14.09137	-1.36917
14.46701	-1.41279
14.74112	-1.35098
14.85279	-1.42277
15.19797	-1.42406
15.39086	-1.35887
15.48223	-1.41987
15.77665	-1.41150
16.00000	-1.36836
16.11168	-1.38494
16.45685	-1.39380
16.74112	-1.42293
16.88325	-1.38382
17.30964	-1.36515
17.64467	-1.44852
17.78680	-1.36692
18.18274	-1.41279
18.40609	-1.36032
18.48731	-1.41408
18.82234	-1.34696
19.05584	-1.29545
19.16751	-1.26857
19.59391	-1.15509
19.87817	-1.13368
20.14213	-0.96081
20.70051	-0.65515
21.04569	-0.44912
21.38071	-0.12672
21.91878	0.26296
22.26396	0.45128
22.57868	0.57651
23.18782	0.48605
23.42132	0.41346
23.56345	0.30835
23.83756	0.10876
23.98985	-0.08938
24.06091	-0.22619
24.23350	-0.46345
24.35533	-0.61877
24.42640	-0.58706
24.64975	-0.83221
24.83249	-0.91091
24.94416	-0.95904
25.36041	-1.04435
25.64467	-1.14704
25.81726	-1.20917
26.23350	-1.29336
26.51777	-1.36225
26.68020	-1.30012
27.07614	-1.36466
27.40102	-1.36466
27.55330	-1.43935
28.06091	-1.44901
28.44670	-1.44820
28.62944	-1.43838
29.14721	-1.41311
29.51269	-1.42196
29.67513	-1.44482
30.15228	-1.49923
30.45685	-1.48554
30.62944	-1.46961
31.08629	-1.44643
31.45178	-1.47701
31.64467	-1.44369
32.23350	-1.44418
32.52792	-1.47685
32.67005	-1.46800
33.02538	-1.49697
33.23858	-1.43854
33.35025	-1.50550
33.70558	-1.50872
34.01015	-1.46140
34.26396	-1.47605
34.77157	-1.46333
35.10660	-1.52530
35.27919	-1.49440
35.76650	-1.49665
36.11168	-1.51017
36.28426	-1.51629
36.76142	-1.50824
37.06599	-1.47476
37.26904	-1.52643
37.75635	-1.49778
38.05076	-1.44852
38.23350	-1.46913
38.69036	-1.45416
38.96447	-1.49053
39.13706	-1.44257
39.55330	-1.47508
39.82741	-1.48780
39.97970	-1.51564
40.28426	-1.43790
40.52792	-1.46575
40.62944	-1.48554
40.96447	-1.46993
41.19797	-1.48619
41.30964	-1.46269
41.63452	-1.50534
41.87817	-1.50164
41.95939	-1.45094
42.25381	-1.46285
42.46701	-1.43999
42.55838	-1.50180
42.88325	-1.43146
43.07614	-1.42663
43.16751	-1.49182
43.44162	-1.44418
43.63452	-1.48136
43.71574	-1.44498
43.98985	-1.50293
44.23350	-1.49826
44.34518	-1.43259
44.68020	-1.46333
44.89340	-1.43291
44.99492	-1.49617
45.29949	-1.42728
45.48223	-1.43500
45.57360	-1.49971
45.85787	-1.46462
46.05076	-1.45512
46.14213	-1.46027
46.39594	-1.49874
46.61929	-1.51130
46.73096	-1.42406
47.08629	-1.49552
47.34010	-1.46140
47.46193	-1.49987
47.80711	-1.43838
48.03046	-1.44241
48.12183	-1.50888
48.40609	-1.47653
48.63959	-1.49295
48.74112	-1.44112
49.13706	-1.51935
49.41117	-1.50566
49.54315	-1.46108
49.93909	-1.47363
50.21320	-1.44434
50.34518	-1.51999
50.75127	-1.47122
51.04569	-1.49601
51.19797	-1.44257
51.63452	-1.51001
51.92893	-1.47202
52.07107	-1.48973
52.54822	-1.43758
52.85279	-1.44820
53.02538	-1.46655
53.56345	-1.50695
53.91878	-1.48458
54.09137	-1.46639
54.58883	-1.43404
54.91371	-1.43066
55.08629	-1.47074
55.57360	-1.48876
55.92893	-1.47653
56.07107	-1.46237
56.60914	-1.42325
56.95431	-1.44836
57.11675	-1.44595
57.64467	-1.46993
57.98985	-1.44756
58.19289	-1.49794
58.70051	-1.46092
59.04569	-1.48410
59.23858	-1.44257
59.81726	-1.40748
60.17259	-1.42390
60.34518	-1.45673
60.90355	-1.48683
61.30964	-1.45287
61.50254	-1.49504
62.04061	-1.48603
62.38579	-1.49407
62.54822	-1.45738
63.05584	-1.44047
63.39086	-1.48876
63.57360	-1.42744
64.14213	-1.43371
64.46701	-1.48265
64.65990	-1.43130
65.11675	-1.43661
65.40102	-1.43854
65.55330	-1.44530
66.05076	-1.46011
66.37563	-1.43742
66.56853	-1.47492
67.10660	-1.45480
67.45178	-1.43468
67.62437	-1.45206
68.13198	-1.45689
68.43655	-1.44241
68.59898	-1.46961
69.05584	-1.48892
69.37056	-1.43227
69.56345	-1.48055
70.06091	-1.46188
70.38579	-1.44643
70.55838	-1.44096
71.03553	-1.44965
71.34010	-1.47846
71.50254	-1.43371
71.91878	-1.44208
72.19289	-1.50389
72.35533	-1.47009
72.77157	-1.48828
73.06599	-1.49552
73.22843	-1.51870
73.63452	-1.51339
73.89848	-1.44659
74.06091	-1.50341
74.48731	-1.46623
74.77157	-1.44901
74.92386	-1.44160
75.32995	-1.44820
75.59391	-1.51564
75.75635	-1.45738
76.17259	-1.52192
76.40609	-1.48554
76.54822	-1.50872
76.93401	-1.50743
77.21827	-1.44675
77.41117	-1.47508
77.96954	-1.42711
78.33503	-1.44031
78.52792	-1.36434
79.05584	-1.30639
79.43147	-1.23010
79.64467	-1.23589
80.24365	-1.25328
80.67005	-1.27066
80.88325	-1.31493
81.53299	-1.36981
81.96954	-1.43355
82.21320	-1.38188
82.88325	-1.41504
83.39086	-1.44917
83.63452	-1.44852
84.35533	-1.48715
84.81218	-1.45319
85.03553	-1.52031
85.64467	-1.52900
86.10152	-1.46961
86.31472	-1.52755
86.85279	-1.51725
87.18782	-1.47508
87.35025	-1.51500
87.83756	-1.53528
88.20305	-1.48426
88.41624	-1.52176
88.94416	-1.54639
89.27919	-1.49794
89.45178	-1.55347
89.94924	-1.53995
90.26396	-1.50422