Black Body Radiation Experiment Thu, Mar 21, 2024 10:41 AM
Sensor Position (Degrees)	Light Intensity (Volts)
0.00000	-1.57085
0.00000	-1.52031
0.00000	-1.57182
0.00000	-1.59291
0.00000	-1.59097
0.00000	-1.51468
0.00000	-1.55588
0.00000	-1.58840
0.00000	-1.51371
0.00000	-1.51838
0.00000	-1.53448
0.00000	-1.53882
0.00000	-1.49762
0.00000	-1.49150
0.00000	-1.51081
0.00000	-1.51661
0.00000	-1.49102
0.01015	-1.50341
0.01015	-1.50389
0.02030	-1.56039
0.04061	-1.55814
0.13198	-1.53786
0.24365	-1.52868
0.29442	-1.50566
0.55838	-1.50631
0.73096	-1.48265
0.82234	-1.56103
1.22843	-1.45931
1.53299	-1.49005
1.70558	-1.46639
2.28426	-1.55846
2.58883	-1.46220
2.76142	-1.50212
3.11675	-1.54172
3.43147	-1.49391
3.57360	-1.51597
4.11168	-1.52562
4.51777	-1.49086
4.76142	-1.53029
5.24873	-1.51065
5.64467	-1.54059
5.76650	-1.43903
6.35533	-1.42728
6.76142	-1.46945
7.12690	-1.52256
7.88832	-1.48619
8.33503	-1.49633
8.54822	-1.53866
9.11675	-1.52079
9.50254	-1.43870
9.70558	-1.49230
10.31472	-1.42261
10.73096	-1.52482
10.96447	-1.51259
11.68528	-1.48925
12.08122	-1.43532
12.22335	-1.51114
12.68020	-1.45979
13.01523	-1.49665
13.13706	-1.44337
13.65482	-1.45915
14.04061	-1.44450
14.22335	-1.48603
14.74112	-1.49617
15.11675	-1.43806
15.26904	-1.51049
15.77665	-1.47653
16.05076	-1.43661
16.13198	-1.46832
16.41624	-1.46864
16.74112	-1.45062
16.90355	-1.44788
17.51269	-1.42856
18.03046	-1.47878
18.25381	-1.40007
18.89340	-1.39637
19.39086	-1.37512
19.79695	-1.25070
20.56853	-0.95888
20.94416	-0.58352
21.28934	-0.03111
21.87817	1.13036
22.20305	1.88961
22.46701	2.55679
22.95431	3.59033
23.24873	3.89503
23.50254	3.90517
24.04061	3.33407
24.29442	2.87163
24.45685	2.68556
24.87310	1.77162
25.18782	1.24786
25.30964	1.04828
25.77665	0.34811
26.14213	0.00333
26.32487	-0.23263
26.95431	-0.60123
27.38071	-0.80468
27.61421	-0.83752
28.27411	-1.06656
28.71066	-1.11372
28.90355	-1.21771
29.45178	-1.24941
29.87817	-1.33633
30.13198	-1.30559
30.80203	-1.36096
31.29949	-1.35146
31.51269	-1.40603
32.08122	-1.43130
32.47716	-1.41086
32.63959	-1.45931
33.08629	-1.49037
33.37056	-1.41601
33.53299	-1.49037
34.02030	-1.50872
34.36548	-1.43790
34.57868	-1.49456
35.02538	-1.49955
35.35025	-1.42695
35.54315	-1.46301
36.03046	-1.46752
36.40609	-1.44530
36.57868	-1.47235
37.10660	-1.45866
37.49239	-1.47218
37.70558	-1.44756
38.19289	-1.44563
38.51777	-1.51436
38.71066	-1.45142
39.18782	-1.50582
39.49239	-1.49536
39.65482	-1.53254
40.12183	-1.51613
40.36548	-1.50293
40.45685	-1.46253
40.78173	-1.47605
40.99492	-1.45915
41.07614	-1.47798
41.41117	-1.42518
41.66497	-1.42889
41.77665	-1.51065
42.18274	-1.43870
42.51777	-1.46124
42.68020	-1.47927
43.09645	-1.47621
43.32995	-1.50067
43.48223	-1.40651
43.85787	-1.46172
44.10152	-1.45689
44.50761	-1.49472
44.82234	-1.46736
44.96447	-1.43887
45.37056	-1.44627
45.68528	-1.42872
45.78680	-1.49552
46.20305	-1.41810
46.48731	-1.39718
46.61929	-1.47669
47.05584	-1.40828
47.39086	-1.44257
47.52284	-1.44611
48.03046	-1.46365
48.38579	-1.47846
48.56853	-1.41247
49.17766	-1.42454
49.62437	-1.38736
49.85787	-1.46043
50.44670	-1.41875
50.82234	-1.44933
50.98477	-1.39315
51.47208	-1.46140
51.77665	-1.42341
52.26396	-1.46381
52.62944	-1.41858
52.81218	-1.45448
53.32995	-1.38221
53.61421	-1.41359
53.78680	-1.40973
54.24365	-1.44707
54.56853	-1.43677
54.74112	-1.38639
55.19797	-1.36418
55.50254	-1.40426
55.65482	-1.40136
56.08122	-1.44868
56.33503	-1.41327
56.45685	-1.44096
56.86294	-1.37979
57.08629	-1.44691
57.22843	-1.36096
57.58376	-1.38848
57.84772	-1.37690
58.00000	-1.42679
58.44670	-1.44031
58.74112	-1.41907
58.91371	-1.43162
59.42132	-1.40265
59.75635	-1.42953
59.93909	-1.37335
60.53807	-1.38414
61.03553	-1.39219
61.26904	-1.40925
61.96954	-1.42068
62.47716	-1.37400
62.70051	-1.43307
63.31980	-1.45062
63.71574	-1.39702
63.88832	-1.44707
64.47716	-1.46880
64.90355	-1.42728
65.11675	-1.48345
65.71574	-1.49037
66.09137	-1.46188
66.30457	-1.47782
66.81218	-1.49263
67.16751	-1.44643
67.35025	-1.48941
67.92893	-1.49134
68.32487	-1.46703
68.51777	-1.49182
69.09645	-1.50904
69.47208	-1.44804
69.66497	-1.48442
70.24365	-1.50502
70.65990	-1.44740
70.89340	-1.49681
71.53299	-1.49263
72.00000	-1.44418
72.23350	-1.49279
72.85279	-1.48168
73.30964	-1.46204
73.56345	-1.45367
74.21320	-1.46092
74.60914	-1.52868
74.81218	-1.49407
75.41117	-1.52450
75.76650	-1.51500
75.97970	-1.55556
76.53807	-1.54945
76.88325	-1.47750
77.06599	-1.51854
77.63452	-1.49424
78.02030	-1.55669
78.23350	-1.52224
78.82234	-1.48715
79.18782	-1.38414
79.39086	-1.39911
79.86802	-1.33730
80.22335	-1.25537
80.39594	-1.27565
80.90355	-1.25634
81.28934	-1.33279
81.49239	-1.31557
82.08122	-1.36804
82.47716	-1.46929
82.69036	-1.44096
83.27919	-1.48651
83.63452	-1.50727
83.82741	-1.51741
84.27411	-1.53576
84.55838	-1.49890
84.69036	-1.55476
85.06599	-1.54993
85.37056	-1.51452
85.50254	-1.55202
85.96954	-1.56409
86.30457	-1.50985
86.46701	-1.54301
87.07614	-1.55411
87.52284	-1.52723
87.76650	-1.56490
88.37563	-1.57198
88.76142	-1.53609
88.94416	-1.56715
89.47208	-1.56377
89.84772	-1.54108
90.04061	-1.58035